Frequency,Magnitude
0.00,1388.000000
1.35,1463.908630
2.69,1516.962066
4.04,1780.025162
5.38,2017.928132
6.73,2235.107221
8.07,2611.637442
9.42,2789.394430
10.77,3131.909973
12.11,3376.823171
13.46,3582.990636
14.80,3821.991744
16.15,4030.433424
17.50,4295.514412
18.84,4431.250695
20.19,4570.230653
21.53,4740.349311
22.88,4909.791087
24.22,4960.077592
25.57,5111.736355
26.92,5143.584286
28.26,5212.196831
29.61,5207.452088
30.95,5234.895670
32.30,5304.085448
33.65,5335.750076
34.99,5348.379553
36.34,5383.276574
37.68,5413.223772
39.03,5540.115994
40.37,5596.926501
41.72,5728.871377
43.07,5740.947613
44.41,5983.115104
45.76,6155.976328
47.10,6469.908185
48.45,6625.531890
49.80,6950.348342
51.14,7196.622224
52.49,7525.655097
53.83,7884.901654
55.18,8136.749572
56.52,8598.925698
57.87,8952.996405
59.22,9262.904357
60.56,9657.750787
61.91,10036.081469
63.25,10382.502856
64.60,10740.360495
65.95,11081.192573
67.29,11340.380168
68.64,11632.921262
69.98,12132.743332
71.33,12362.881416
72.67,12626.387697
74.02,12875.647870
75.37,13115.817538
76.71,13388.125741
78.06,13604.506715
79.40,13808.676513
80.75,14006.767472
82.10,14132.459092
83.44,14334.099483
84.79,14511.805006
86.13,14707.030740
87.48,14890.608925
88.82,14973.123817
90.17,15258.087391
91.52,15366.180227
92.86,15534.613620
94.21,15768.751538
95.55,15961.121322
96.90,16160.217111
98.25,16324.115987
99.59,16622.559577
100.94,16858.640284
102.28,17066.948380
103.63,17395.789181
104.97,17657.815476
106.32,17916.876076
107.67,18225.546555
109.01,18553.666018
110.36,18902.449225
111.70,19128.118536
113.05,19517.474096
114.40,19813.037728
115.74,20039.767793
117.09,20462.742757
118.43,20724.162013
119.78,20999.023167
121.12,21235.389194
122.47,21524.760871
123.82,21795.633175
125.16,22058.849303
126.51,22277.986463
127.85,22471.482869
129.20,22661.250259
130.55,22822.097021
131.89,23042.308034
133.24,23196.776672
134.58,23347.345537
135.93,23560.143491
137.27,23774.227705
138.62,23918.996956
139.97,24153.610222
141.31,24313.439816
142.66,24545.777828
144.00,24773.552268
145.35,25052.399360
146.69,25329.747825
148.04,25662.639766
149.39,25989.408349
150.73,26361.421416
152.08,26788.412304
153.42,27152.159017
154.77,27654.440375
156.12,28099.953107
157.46,28544.303439
158.81,29112.988270
160.15,29668.128702
161.50,30261.893095
162.84,30748.371637
164.19,31344.230478
165.54,31850.972126
166.88,32456.884337
168.23,32948.801045
169.57,33401.839468
170.92,33959.633607
172.27,34445.734190
173.61,34984.258271
174.96,35334.451031
176.30,35804.381939
177.65,36174.492466
178.99,36500.177267
180.34,36779.405554
181.69,37099.922465
183.03,37315.269724
184.38,37436.731397
185.72,37630.205582
187.07,37793.284517
188.42,37897.597355
189.76,37975.481903
191.11,38006.534389
192.45,38103.646414
193.80,38086.420270
195.14,38170.985613
196.49,38217.362403
197.84,38268.269573
199.18,38362.634443
200.53,38458.827555
201.87,38631.330036
203.22,38803.593488
204.57,39192.986157
205.91,39470.148066
207.26,39846.542371
208.60,40303.043475
209.95,40826.738758
211.29,41382.007487
212.64,41994.637155
213.99,42655.653229
215.33,43374.377915
216.68,44176.731292
218.02,45072.402272
219.37,45952.126003
220.72,46927.410507
222.06,47817.697819
223.41,48777.430457
224.75,49748.050646
226.10,50789.288861
227.44,51680.737490
228.79,52590.252984
230.14,53574.473263
231.48,54400.649436
232.83,55255.423839
234.17,56045.434533
235.52,56817.874400
236.87,57513.334759
238.21,58239.233059
239.56,58737.762873
240.90,59300.017575
242.25,59795.726664
243.59,60206.282888
244.94,60545.022622
246.29,60946.246034
247.63,61191.104103
248.98,61391.794870
250.32,61617.204650
251.67,61778.278241
253.02,61901.826923
254.36,62106.626056
255.71,62216.609968
257.05,62295.223427
258.40,62545.113700
259.74,62710.601735
261.09,63056.261644
262.44,63299.516468
263.78,63671.270174
265.13,64047.319509
266.47,64587.866825
267.82,65232.021510
269.17,65925.180582
270.51,66677.548077
271.86,67561.775052
273.20,68501.095133
274.55,69500.477474
275.89,70705.744310
277.24,71854.690063
278.59,73135.966238
279.93,74434.710388
281.28,75801.304111
282.62,77219.205234
283.97,78649.900407
285.31,80006.765837
286.66,81524.427628
288.01,82972.959100
289.35,84438.410844
290.70,85862.673126
292.04,87276.807753
293.39,88591.483964
294.74,89913.796700
296.08,91216.958079
297.43,92425.668219
298.77,93682.774823
300.12,94892.985720
301.46,95911.350011
302.81,96975.806536
304.16,98064.690548
305.50,99152.008893
306.85,100074.987831
308.19,101087.974102
309.54,102005.476192
310.89,103082.884413
312.23,104041.568171
313.58,105133.087936
314.92,106253.711341
316.27,107342.618142
317.61,108666.539232
318.96,109946.002400
320.31,111347.513907
321.65,112861.230900
323.00,114490.730264
324.34,116222.172704
325.69,118019.705287
327.04,119896.981883
328.38,122162.316989
329.73,124203.785681
331.07,126448.008895
332.42,128750.863926
333.76,131161.573762
335.11,133657.474997
336.46,136213.275028
337.80,138747.433955
339.15,141318.336012
340.49,143909.832041
341.84,146434.413638
343.19,149052.817568
344.53,151497.163635
345.88,154052.607693
347.22,156488.555652
348.57,158857.557150
349.91,161113.211379
351.26,163385.103720
352.61,165543.208688
353.95,167705.877048
355.30,169744.979934
356.64,171766.212930
357.99,173875.695129
359.34,175994.323313
360.68,178090.413999
362.03,180416.557462
363.37,182857.505713
364.72,185441.498935
366.06,188310.195138
367.41,191496.320122
368.76,195076.095781
370.10,199186.192522
371.45,203761.460020
372.79,208922.507559
374.14,214854.730776
375.49,221314.375164
376.83,228702.225948
378.18,236888.647154
379.52,245883.802879
380.87,255780.951856
382.21,266650.231721
383.56,278424.698388
384.91,291126.490156
386.25,304787.564565
387.60,319293.932322
388.94,334822.054728
390.29,351253.234397
391.64,368645.413217
392.98,386855.463243
394.33,405903.699359
395.67,425912.808276
397.02,446699.587084
398.36,468299.761922
399.71,490662.988556
401.06,513974.482570
402.40,538004.226870
403.75,562921.684009
405.09,588678.992380
406.44,615238.349592
407.79,642730.450066
409.13,671090.928903
410.48,700605.257397
411.82,731152.489172
413.17,762957.694473
414.51,796142.711436
415.86,830943.006610
417.21,867605.806360
418.55,906487.999324
419.90,947977.771519
421.24,992742.469178
422.59,1041562.901618
423.93,1095448.076149
425.28,1156013.903659
426.63,1225149.293435
427.97,1306096.771249
429.32,1403436.817061
430.66,1524437.421731
432.01,1681325.195922
433.36,1896375.968669
434.70,2214333.364553
436.05,2741091.846170
437.39,3801355.118206
438.74,7103083.469602
440.08,96461456.274563
441.43,4917201.148184
442.78,2176401.231553
444.12,1226163.410698
445.47,746111.922223
446.81,461321.964665
448.16,282021.387151
449.51,179231.296311
450.85,151217.632506
452.20,176253.613370
453.54,216820.881315
454.89,256637.755366
456.23,291687.575799
457.58,321578.784528
458.93,346663.262882
460.27,367511.862027
461.62,384593.540147
462.96,398301.492980
464.31,409386.833179
465.66,417802.401386
467.00,423964.952289
468.35,428232.270272
469.69,430600.023733
471.04,431367.485551
472.38,430692.178882
473.73,428836.281319
475.08,425823.429243
476.42,421671.186889
477.77,416555.656499
479.11,410633.453177
480.46,403983.448613
481.81,396762.368767
483.15,388901.864238
484.50,380602.382871
485.84,371783.783352
487.19,362707.775418
488.53,353363.373462
489.88,343872.961141
491.23,334292.905958
492.57,324636.528498
493.92,314943.162251
495.26,305315.793457
496.61,295880.259587
497.96,286515.812119
499.30,277483.340565
500.65,268732.083904
501.99,260187.770216
503.34,252145.280714
504.68,244408.953107
506.03,237109.628004
507.38,230258.353488
508.72,223893.883414
510.07,218099.891217
511.41,212696.428348
512.76,207764.952590
514.11,203325.522160
515.45,199313.726145
516.80,195622.146349
518.14,192459.262762
519.49,189614.399698
520.83,187051.014527
522.18,184774.290726
523.53,182791.001426
524.87,180937.313753
526.22,179266.447896
527.56,177831.979047
528.91,176272.967918
530.26,174897.722568
531.60,173573.388471
532.95,172150.415043
534.29,170842.825899
535.64,169505.061012
536.98,168005.281153
538.33,166534.054151
539.68,164976.457047
541.02,163474.961867
542.37,161768.003597
543.71,160092.580285
545.06,158305.530938
546.41,156606.000745
547.75,154740.613913
549.10,152965.098908
550.44,151097.885904
551.79,149285.812963
553.13,147430.029931
554.48,145672.856245
555.83,143888.653514
557.17,142263.818728
558.52,140568.407563
559.86,139036.873317
561.21,137516.224664
562.55,136124.663972
563.90,134816.416347
565.25,133595.008004
566.59,132485.083923
567.94,131427.578151
569.28,130394.945537
570.63,129550.939206
571.98,128731.565535
573.32,127969.883444
574.67,127220.613263
576.01,126572.533391
577.36,125963.214039
578.70,125389.819162
580.05,124717.046601
581.40,124114.359054
582.74,123431.480992
584.09,122836.425638
585.43,122158.912074
586.78,121578.610455
588.13,120782.421964
589.47,119940.125678
590.82,119157.820085
592.16,118290.904229
593.51,117203.413226
594.85,116222.998946
596.20,115191.817629
597.55,114172.540030
598.89,112981.510773
600.24,111866.313340
601.58,110613.300790
602.93,109408.206416
604.28,108243.199529
605.62,107040.650874
606.97,105824.045793
608.31,104588.805187
609.66,103437.887033
611.00,102250.066362
612.35,101161.872115
613.70,100150.245758
615.04,99152.441274
616.39,98256.599974
617.73,97539.300375
619.08,96756.133675
620.43,96048.730710
621.77,95522.987758
623.12,94956.935368
624.46,94492.868722
625.81,94250.829119
627.15,93901.001673
628.50,93681.700566
629.85,93540.702366
631.19,93429.595788
632.54,93303.080638
633.88,93287.416487
635.23,93255.777302
636.58,93212.301284
637.92,93106.529921
639.27,93092.663798
640.61,93080.016998
641.96,92924.683450
643.30,92893.846081
644.65,92745.032717
646.00,92482.187289
647.34,92261.781711
648.69,91978.687705
650.03,91664.595037
651.38,91212.745551
652.73,90813.880501
654.07,90301.120590
655.42,89740.469884
656.76,89091.277270
658.11,88471.542684
659.45,87806.465415
660.80,87029.756659
662.15,86308.439510
663.49,85632.222803
664.84,84717.213888
666.18,83965.579326
667.53,83151.553844
668.88,82369.161804
670.22,81650.014681
671.57,80912.265945
672.91,80192.669578
674.26,79479.503200
675.60,78910.122308
676.95,78233.985779
678.30,77755.851115
679.64,77244.897326
680.99,76820.423048
682.33,76478.516562
683.68,76078.202680
685.03,75823.791321
686.37,75572.938834
687.72,75385.681052
689.06,75253.970526
690.41,75141.667597
691.75,75012.827359
693.10,74960.347763
694.45,74905.393003
695.79,74893.828142
697.14,74903.012680
698.48,74880.557363
699.83,74812.814493
701.17,74796.190205
702.52,74758.098878
703.87,74661.611201
705.21,74587.151179
706.56,74548.587475
707.90,74365.455891
709.25,74219.683694
710.60,74182.389794
711.94,73758.481721
713.29,73511.187269
714.63,73283.319549
715.98,72946.589064
717.32,72609.465080
718.67,72237.516335
720.02,71912.204342
721.36,71564.569133
722.71,71146.584082
724.05,70853.458946
725.40,70359.545245
726.75,69973.871137
728.09,69511.829936
729.44,69133.204957
730.78,68722.207855
732.13,68364.284906
733.47,68008.697155
734.82,67648.055903
736.17,67312.420650
737.51,66865.103910
738.86,66667.857715
740.20,66425.594994
741.55,66080.933494
742.90,65870.502041
744.24,65667.776595
745.59,65505.632652
746.93,65284.888009
748.28,65123.795268
749.62,64878.083028
750.97,64818.910158
752.32,64651.839747
753.66,64407.468587
755.01,64394.914345
756.35,64240.911215
757.70,64267.608382
759.05,64040.034559
760.39,63854.933891
761.74,63718.071745
763.08,63602.762784
764.43,63450.949290
765.77,63280.974619
767.12,63083.224785
768.47,62924.094616
769.81,62688.818422
771.16,62528.219555
772.50,62373.452621
773.85,62177.645951
775.20,61958.254560
776.54,61708.733645
777.89,61487.904923
779.23,61326.841998
780.58,61049.308561
781.92,60915.787936
783.27,60632.055205
784.62,60447.262502
785.96,60193.291212
787.31,60198.115519
788.65,59957.936537
790.00,59794.434408
791.35,59637.291702
792.69,59470.521762
794.04,59345.873025
795.38,59233.646628
796.73,59168.994626
798.07,58994.444609
799.42,58925.359903
800.77,58811.078889
802.11,58711.025787
803.46,58594.300953
804.80,58604.630215
806.15,58445.177090
807.50,58350.874602
808.84,58251.146014
810.19,58196.875707
811.53,58031.215325
812.88,57820.317951
814.22,57735.046084
815.57,57590.206029
816.92,57353.203194
818.26,57301.912057
819.61,57097.151370
820.95,56945.043454
822.30,56722.124601
823.65,56556.395595
824.99,56374.988510
826.34,56112.748970
827.68,55819.120345
829.03,55658.525349
830.37,55409.461253
831.72,55187.480112
833.07,54978.964604
834.41,54763.967128
835.76,54513.362934
837.10,54338.094932
838.45,54064.280500
839.79,53926.500893
841.14,53745.808828
842.49,53587.515048
843.83,53457.045443
845.18,53382.498270
846.52,53232.169617
847.87,53085.465297
849.22,53017.201424
850.56,52988.905231
851.91,52923.526418
853.25,52885.353552
854.60,52814.612816
855.94,52834.141042
857.29,52819.574497
858.64,52829.454083
859.98,52842.848480
861.33,52822.836736
862.67,52786.348303
864.02,52865.559598
865.37,52838.248206
866.71,52797.421571
868.06,52916.227623
869.40,52738.799006
870.75,52720.747243
872.09,52637.187299
873.44,52597.443170
874.79,52452.659226
876.13,52370.613173
877.48,52214.810673
878.82,52122.793965
880.17,51906.964739
881.52,51818.549425
882.86,51660.297414
884.21,51454.544684
885.55,51251.719436
886.90,51095.773086
888.24,50892.885259
889.59,50701.495618
890.94,50460.511872
892.28,50215.688062
893.63,49984.120532
894.97,49872.643434
896.32,49676.636592
897.67,49519.506582
899.01,49313.924272
900.36,49134.162926
901.70,48997.751876
903.05,48859.699247
904.39,48720.979623
905.74,48646.852514
907.09,48501.247211
908.43,48410.793148
909.78,48379.179219
911.12,48324.490062
912.47,48278.286212
913.82,48218.892454
915.16,48308.312237
916.51,48211.669256
917.85,48177.712290
919.20,48209.332713
920.54,48230.282568
921.89,48202.705452
923.24,48176.774466
924.58,48208.429174
925.93,48190.508647
927.27,48171.692328
928.62,48164.174143
929.97,48145.113286
931.31,48107.846356
932.66,48095.488663
934.00,47980.425979
935.35,47993.963677
936.69,47950.995447
938.04,47807.101619
939.39,47718.409554
940.73,47634.500493
942.08,47507.612381
943.42,47351.166756
944.77,47298.351812
946.12,47121.523982
947.46,47006.433373
948.81,46809.114166
950.15,46909.895544
951.50,46701.728620
952.84,46498.782336
954.19,46445.135395
955.54,46292.646191
956.88,46147.442986
958.23,46060.122500
959.57,45900.142242
960.92,45794.433485
962.27,45662.001204
963.61,45591.793052
964.96,45534.842070
966.30,45451.728954
967.65,45350.877336
968.99,45296.657409
970.34,45263.714055
971.69,45170.973815
973.03,45107.597194
974.38,45065.674061
975.72,45031.951822
977.07,45023.182624
978.41,44919.584664
979.76,44873.312524
981.11,44826.651391
982.45,44780.887560
983.80,44753.916330
985.14,44720.615366
986.49,44681.286055
987.84,44682.399521
989.18,44589.129050
990.53,44499.895981
991.87,44392.301388
993.22,44393.563559
994.56,44332.388114
995.91,44200.855053
997.26,44176.450344
998.60,44080.897139
999.95,43991.630967
1001.29,43955.067420
1002.64,43866.635760
1003.99,43760.814181
1005.33,43734.529977
1006.68,43682.385629
1008.02,43662.061410
1009.37,43478.278271
1010.71,43388.404855
1012.06,43291.039283
1013.41,43366.591149
1014.75,43239.073560
1016.10,43188.826341
1017.44,43163.630717
1018.79,43102.264297
1020.14,43027.599525
1021.48,43068.247628
1022.83,42962.720120
1024.17,42959.944976
1025.52,42906.475897
1026.86,42806.681136
1028.21,42830.295763
1029.56,42820.337171
1030.90,42818.897214
1032.25,42772.620106
1033.59,42723.623999
1034.94,42605.744475
1036.29,42618.863356
1037.63,42571.803240
1038.98,42524.359354
1040.32,42477.741293
1041.67,42449.078674
1043.01,42332.556375
1044.36,42235.173445
1045.71,42167.690981
1047.05,41979.096361
1048.40,42048.952986
1049.74,41910.489013
1051.09,41927.694663
1052.44,41711.891073
1053.78,41631.406212
1055.13,41639.073318
1056.47,41447.521745
1057.82,41335.231107
1059.16,41238.936923
1060.51,41220.195311
1061.86,41104.213024
1063.20,41041.753101
1064.55,40972.093988
1065.89,40885.447187
1067.24,40799.576782
1068.59,40853.921575
1069.93,40702.435428
1071.28,40662.097107
1072.62,40657.726961
1073.97,40633.226254
1075.31,40569.342450
1076.66,40603.176247
1078.01,40546.490526
1079.35,40546.796047
1080.70,40582.239506
1082.04,40517.355260
1083.39,40575.390182
1084.74,40551.513034
1086.08,40553.893840
1087.43,40575.696234
1088.77,40650.708529
1090.12,40462.713762
1091.46,40512.999206
1092.81,40525.380898
1094.16,40538.901933
1095.50,40496.183023
1096.85,40461.517776
1098.19,40437.793147
1099.54,40389.372926
1100.89,40313.891969
1102.23,40279.908553
1103.58,40214.337779
1104.92,40163.448573
1106.27,40024.157941
1107.61,39988.151067
1108.96,39900.482073
1110.31,39759.885784
1111.65,39727.954404
1113.00,39589.008016
1114.34,39511.324587
1115.69,39369.068818
1117.03,39432.678959
1118.38,39316.996739
1119.73,39173.360418
1121.07,39076.922692
1122.42,39053.997771
1123.76,38947.394741
1125.11,38843.973492
1126.46,38774.971391
1127.80,38713.117097
1129.15,38688.227216
1130.49,38620.912916
1131.84,38592.935373
1133.18,38519.869401
1134.53,38524.628022
1135.88,38499.366446
1137.22,38470.096921
1138.57,38479.453974
1139.91,38535.144197
1141.26,38444.256157
1142.61,38456.267415
1143.95,38473.931052
1145.30,38447.769170
1146.64,38432.854845
1147.99,38434.570750
1149.33,38570.339749
1150.68,38500.880758
1152.03,38457.703876
1153.37,38513.650215
1154.72,38434.229608
1156.06,38402.098860
1157.41,38430.626333
1158.76,38388.309046
1160.10,38365.368832
1161.45,38296.953623
1162.79,38269.652904
1164.14,38211.498306
1165.48,38214.065226
1166.83,38110.776315
1168.18,38104.376280
1169.52,38052.329305
1170.87,37985.356519
1172.21,37862.225371
1173.56,37777.781811
1174.91,37724.284866
1176.25,37678.520614
1177.60,37573.752946
1178.94,37588.847758
1180.29,37478.331672
1181.63,37439.528177
1182.98,37369.497218
1184.33,37274.856979
1185.67,37262.788930
1187.02,37218.309237
1188.36,37120.868617
1189.71,37134.798991
1191.06,37145.861202
1192.40,37044.649633
1193.75,37003.156848
1195.09,36956.473349
1196.44,36931.136681
1197.78,36910.425459
1199.13,36899.024799
1200.48,36896.170378
1201.82,36874.377535
1203.17,36815.548394
1204.51,36850.800208
1205.86,36776.835692
1207.21,36766.225798
1208.55,36779.990538
1209.90,36704.930783
1211.24,36701.135557
1212.59,36679.340560
1213.93,36611.062171
1215.28,36641.766038
1216.63,36570.627970
1217.97,36494.881952
1219.32,36517.804242
1220.66,36508.346366
1222.01,36490.756546
1223.36,36364.711323
1224.70,36369.810681
1226.05,36251.200598
1227.39,36278.326804
1228.74,36226.939556
1230.08,36194.845611
1231.43,36156.894148
1232.78,36111.711990
1234.12,36002.284932
1235.47,36038.438798
1236.81,36029.303515
1238.16,35979.664232
1239.51,35927.409328
1240.85,35915.600045
1242.20,35935.115851
1243.54,35854.024936
1244.89,35789.806980
1246.23,35792.368156
1247.58,35798.341344
1248.93,35756.909491
1250.27,35688.134494
1251.62,35722.867416
1252.96,35780.681918
1254.31,35721.091728
1255.65,35676.404620
1257.00,35652.192265
1258.35,35596.628360
1259.69,35711.086786
1261.04,35573.086784
1262.38,35595.099629
1263.73,35505.220011
1265.08,35479.391189
1266.42,35455.780275
1267.77,35404.759867
1269.11,35368.962108
1270.46,35348.883089
1271.80,35229.685517
1273.15,35197.374829
1274.50,35161.487665
1275.84,35097.637469
1277.19,35127.624309
1278.53,34986.832651
1279.88,34973.132084
1281.23,34917.987956
1282.57,34834.455257
1283.92,34766.953578
1285.26,34710.559219
1286.61,34699.793398
1287.95,34660.755840
1289.30,34623.769409
1290.65,34569.992493
1291.99,34554.209133
1293.34,34487.742425
1294.68,34463.221658
1296.03,34439.576989
1297.38,34351.538996
1298.72,34462.701857
1300.07,34388.656851
1301.41,34423.812495
1302.76,34413.819193
1304.10,34416.511081
1305.45,34401.777085
1306.80,34384.104325
1308.14,34406.385112
1309.49,34389.344739
1310.83,34421.436584
1312.18,34386.833068
1313.53,34405.128119
1314.87,34401.701575
1316.22,34381.814949
1317.56,34393.410237
1318.91,34360.693378
